# Pulseq sequence file
# Created by PyPulseq

[VERSION]
major 1
minor 4
revision 0

[DEFINITIONS]
AdcRasterTime 0.000125 
BlockDurationRaster 1e-05 
GradientRasterTime 1e-05 
RadiofrequencyRasterTime 1e-06 
TotalDuration 3.2 

# Format of blocks:
# NUM DUR RF  GX  GY  GZ  ADC  EXT
[BLOCKS]
  1 934   1   0   0   1  0  0
  2 215   0   2   3   4  0  0
  3 729   0   0   0   0  0  0
  4  68   0   0   0   5  0  0
  5 1042   2   0   0   6  0  0
  6  68   0   0   0   5  0  0
  7 1284   0   0   0   0  0  0
  8  26   0   7   0   0  0  0
  9 202   0   8   0   0  1  0
 10  26   0   7   0   0  0  0
 11 223   0   0   9  10  0  0
 12 15183   0   0   0   0  0  0


# Format of RF events:
# id amplitude mag_id phase_id time_shape_id delay freq phase
# ..        Hz   ....     ....          ....    us   Hz   rad
[RF]
1      227.736 1 2 0 5000 0 0
2      384.179 3 4 0 5000 0 1.5708

# Format of trapezoid gradients:
# id amplitude rise flat fall delay
# ..      Hz/m   us   us   us    us
[TRAP]
 1       176744  40 4300  40 4960
 2       753750 160    0 160   0
 3      18691.6  10 2130  10   0
 4      -181770  40 2070  40   0
 5  1.59806e+06 320   40 320   0
 6       156134  40 5380  40 4960
 7       618462 130    0 130   0
 8        40000  10 2000  10   0
 9     -18691.6  10 2130  10   0
10  1.60643e+06 320 1590 320   0
11      16355.1  10 2130  10   0
12     -16355.1  10 2130  10   0
13      14018.7  10 2130  10   0
14     -14018.7  10 2130  10   0
15      11682.2  10 2130  10   0
16     -11682.2  10 2130  10   0
17      9345.79  10 2130  10   0
18     -9345.79  10 2130  10   0
19      7009.35  10 2130  10   0
20     -7009.35  10 2130  10   0
21       4672.9  10 2130  10   0
22      -4672.9  10 2130  10   0
23      2336.45  10 2130  10   0
24     -2336.45  10 2130  10   0
25            0  10 2130  10   0
26           -0  10 2130  10   0

# Format of ADC events:
# id num dwell delay freq phase
# ..  ..    ns    us   Hz   rad
[ADC]
1 16 125000 10 0 0

# Sequence Shapes
[SHAPES]

shape_id 1
num_samples 4300
0.020801335
0.0209879543
0.0211746201
0.0213613318
0.0215480891
0.0217348914
0.0219217384
0.0221086295
0.0222955643
0.0224825424
0.0226695633
0.0228566265
0.0230437315
0.023230878
0.0234180654
0.0236052933
0.0237925611
0.0239798685
0.024167215
0.0243546001
0.0245420232
0.024729484
0.024916982
0.0251045167
0.0252920875
0.0254796941
0.0256673359
0.0258550125
0.0260427233
0.0262304679
0.0264182458
0.0266060565
0.0267938995
0.0269817743
0.0271696804
0.0273576173
0.0275455845
0.0277335815
0.0279216078
0.0281096629
0.0282977463
0.0284858574
0.0286739959
0.028862161
0.0290503524
0.0292385695
0.0294268119
0.0296150788
0.02980337
0.0299916847
0.0301800226
0.030368383
0.0305567654
0.0307451693
0.0309335942
0.0311220395
0.0313105047
0.0314989892
0.0316874926
0.0318760141
0.0320645534
0.0322531098
0.0324416828
0.0326302718
0.0328188763
0.0330074957
0.0331961295
0.033384777
0.0335734378
0.0337621112
0.0339507966
0.0341394936
0.0343282015
0.0345169197
0.0347056477
0.0348943849
0.0350831306
0.0352718843
0.0354606454
0.0356494134
0.0358381875
0.0360269672
0.036215752
0.0364045411
0.036593334
0.0367821301
0.0369709288
0.0371597294
0.0373485313
0.037537334
0.0377261367
0.0379149388
0.0381037398
0.038292539
0.0384813357
0.0386701294
0.0388589193
0.0390477049
0.0392364854
0.0394252602
0.0396140288
0.0398027903
0.0399915442
0.0401802898
0.0403690265
0.0405577535
0.0407464702
0.0409351759
0.04112387
0.0413125517
0.0415012204
0.0416898754
0.041878516
0.0420671415
0.0422557513
0.0424443445
0.0426329205
0.0428214787
0.0430100183
0.0431985385
0.0433870387
0.0435755181
0.0437639761
0.0439524119
0.0441408248
0.044329214
0.0445175788
0.0447059184
0.0448942322
0.0450825194
0.0452707792
0.0454590109
0.0456472137
0.0458353869
0.0460235297
0.0462116413
0.0463997209
0.0465877679
0.0467757814
0.0469637606
0.0471517047
0.047339613
0.0475274847
0.047715319
0.047903115
0.048090872
0.0482785892
0.0484662657
0.0486539008
0.0488414936
0.0490290433
0.049216549
0.0494040101
0.0495914255
0.0497787945
0.0499661163
0.05015339
0.0503406147
0.0505277896
0.0507149139
0.0509019866
0.051089007
0.0512759741
0.0514628871
0.0516497451
0.0518365472
0.0520232926
0.0522099803
0.0523966095
0.0525831793
0.0527696887
0.0529561369
0.053142523
0.053328846
0.053515105
0.0537012992
0.0538874275
0.0540734891
0.0542594831
0.0544454084
0.0546312642
0.0548170495
0.0550027633
0.0551884048
0.0553739729
0.0555594666
0.0557448851
0.0559302274
0.0561154924
0.0563006792
0.0564857869
0.0566708143
0.0568557606
0.0570406247
0.0572254056
0.0574101024
0.057594714
0.0577792394
0.0579636776
0.0581480275
0.0583322882
0.0585164586
0.0587005377
0.0588845243
0.0590684176
0.0592522164
0.0594359196
0.0596195263
0.0598030354
0.0599864457
0.0601697562
0.0603529658
0.0605360736
0.0607190782
0.0609019788
0.0610847741
0.0612674631
0.0614500447
0.0616325177
0.0618148811
0.0619971337
0.0621792744
0.062361302
0.0625432156
0.0627250138
0.0629066955
0.0630882597
0.0632697052
0.0634510307
0.0636322352
0.0638133174
0.0639942762
0.0641751105
0.064355819
0.0645364005
0.0647168539
0.064897178
0.0650773715
0.0652574332
0.0654373621
0.0656171567
0.0657968159
0.0659763386
0.0661557233
0.066334969
0.0665140744
0.0666930381
0.0668718591
0.0670505359
0.0672290675
0.0674074524
0.0675856894
0.0677637773
0.0679417147
0.0681195004
0.0682971331
0.0684746115
0.0686519342
0.0688291
0.0690061076
0.0691829557
0.0693596429
0.0695361678
0.0697125293
0.0698887258
0.0700647562
0.070240619
0.0704163129
0.0705918365
0.0707671884
0.0709423674
0.0711173719
0.0712922008
0.0714668524
0.0716413256
0.0718156188
0.0719897307
0.0721636598
0.0723374048
0.0725109643
0.0726843367
0.0728575208
0.073030515
0.0732033179
0.0733759281
0.0735483442
0.0737205646
0.073892588
0.0740644128
0.0742360376
0.0744074609
0.0745786812
0.0747496971
0.074920507
0.0750911095
0.0752615031
0.0754316862
0.0756016574
0.0757714151
0.0759409578
0.0761102839
0.076279392
0.0764482805
0.0766169479
0.0767853926
0.076953613
0.0771216076
0.0772893748
0.0774569131
0.0776242209
0.0777912966
0.0779581385
0.0781247452
0.078291115
0.0784572463
0.0786231375
0.078788787
0.0789541931
0.0791193543
0.0792842689
0.0794489353
0.0796133518
0.0797775167
0.0799414285
0.0801050855
0.0802684859
0.0804316282
0.0805945107
0.0807571316
0.0809194893
0.0810815821
0.0812434083
0.0814049662
0.0815662541
0.0817272702
0.0818880129
0.0820484805
0.0822086711
0.0823685831
0.0825282147
0.0826875642
0.0828466298
0.0830054097
0.0831639023
0.0833221057
0.0834800181
0.0836376378
0.083794963
0.0839519919
0.0841087227
0.0842651536
0.0844212828
0.0845771084
0.0847326288
0.0848878419
0.085042746
0.0851973393
0.08535162
0.0855055861
0.0856592358
0.0858125673
0.0859655787
0.0861182681
0.0862706337
0.0864226736
0.0865743859
0.0867257686
0.08687682
0.0870275381
0.087177921
0.0873279668
0.0874776736
0.0876270394
0.0877760623
0.0879247404
0.0880730717
0.0882210543
0.0883686863
0.0885159657
0.0886628904
0.0888094587
0.0889556684
0.0891015176
0.0892470044
0.0893921267
0.0895368825
0.0896812699
0.0898252868
0.0899689312
0.0901122011
0.0902550945
0.0903976093
0.0905397436
0.0906814952
0.0908228622
0.0909638425
0.091104434
0.0912446347
0.0913844425
0.0915238553
0.0916628711
0.0918014877
0.0919397032
0.0920775153
0.0922149221
0.0923519214
0.092488511
0.0926246889
0.092760453
0.0928958012
0.0930307312
0.093165241
0.0932993284
0.0934329913
0.0935662275
0.093699035
0.0938314114
0.0939633547
0.0940948626
0.0942259331
0.0943565639
0.0944867528
0.0946164976
0.0947457962
0.0948746463
0.0950030457
0.0951309923
0.0952584837
0.0953855178
0.0955120924
0.0956382051
0.0957638538
0.0958890363
0.0960137502
0.0961379933
0.0962617634
0.0963850582
0.0965078754
0.0966302128
0.096752068
0.0968734388
0.0969943229
0.0971147179
0.0972346217
0.0973540319
0.0974729461
0.0975913621
0.0977092776
0.0978266901
0.0979435975
0.0980599973
0.0981758872
0.0982912648
0.0984061279
0.0985204741
0.0986343009
0.0987476061
0.0988603872
0.098972642
0.0990843679
0.0991955627
0.0993062239
0.0994163492
0.0995259361
0.0996349823
0.0997434852
0.0998514427
0.0999588521
0.100065711
0.100172017
0.100277768
0.100382961
0.100487594
0.100591665
0.10069517
0.100798108
0.100900476
0.101002271
0.101103492
0.101204135
0.101304198
0.101403679
0.101502576
0.101600885
0.101698604
0.10179573
0.101892262
0.101988197
0.102083532
0.102178265
0.102272392
0.102365912
0.102458823
0.102551121
0.102642803
0.102733869
0.102824314
0.102914136
0.103003334
0.103091903
0.103179843
0.103267149
0.10335382
0.103439853
0.103525245
0.103609994
0.103694097
0.103777552
0.103860356
0.103942506
0.104024
0.104104835
0.104185009
0.104264519
0.104343362
0.104421535
0.104499037
0.104575865
0.104652015
0.104727485
0.104802273
0.104876375
0.10494979
0.105022514
0.105094546
0.105165881
0.105236518
0.105306454
0.105375686
0.105444212
0.105512028
0.105579133
0.105645523
0.105711196
0.10577615
0.10584038
0.105903885
0.105966662
0.106028709
0.106090022
0.106150599
0.106210436
0.106269533
0.106327885
0.10638549
0.106442345
0.106498447
0.106553795
0.106608384
0.106662212
0.106715277
0.106767576
0.106819106
0.106869864
0.106919847
0.106969053
0.107017479
0.107065122
0.10711198
0.107158049
0.107203326
0.10724781
0.107291497
0.107334385
0.10737647
0.10741775
0.107458222
0.107497884
0.107536732
0.107574763
0.107611976
0.107648366
0.107683932
0.10771867
0.107752577
0.107785652
0.10781789
0.107849289
0.107879847
0.10790956
0.107938426
0.107966442
0.107993604
0.108019911
0.108045359
0.108069945
0.108093667
0.108116521
0.108138506
0.108159617
0.108179853
0.10819921
0.108217685
0.108235276
0.108251979
0.108267793
0.108282713
0.108296738
0.108309863
0.108322087
0.108333407
0.108343819
0.108353321
0.10836191
0.108369582
0.108376336
0.108382168
0.108387075
0.108391055
0.108394104
0.108396219
0.108397399
0.108397639
0.108396937
0.10839529
0.108392695
0.10838915
0.108384651
0.108379195
0.10837278
0.108365402
0.108357059
0.108347748
0.108337466
0.108326209
0.108313976
0.108300763
0.108286567
0.108271385
0.108255215
0.108238053
0.108219897
0.108200743
0.108180589
0.108159432
0.108137269
0.108114096
0.108089912
0.108064712
0.108038495
0.108011257
0.107982996
0.107953708
0.10792339
0.10789204
0.107859654
0.10782623
0.107791765
0.107756255
0.107719699
0.107682092
0.107643433
0.107603717
0.107562943
0.107521107
0.107478206
0.107434238
0.107389199
0.107343086
0.107295897
0.107247629
0.107198278
0.107147842
0.107096318
0.107043703
0.106989994
0.106935188
0.106879282
0.106822274
0.106764159
0.106704936
0.106644601
0.106583152
0.106520585
0.106456898
0.106392088
0.106326151
0.106259086
0.106190888
0.106121555
0.106051084
0.105979473
0.105906717
0.105832815
0.105757763
0.105681559
0.1056042
0.105525682
0.105446002
0.105365159
0.105283148
0.105199968
0.105115614
0.105030085
0.104943377
0.104855487
0.104766413
0.104676151
0.104584699
0.104492053
0.104398212
0.104303171
0.104206928
0.104109481
0.104010826
0.10391096
0.103809881
0.103707585
0.10360407
0.103499332
0.10339337
0.103286179
0.103177758
0.103068103
0.102957212
0.102845081
0.102731707
0.102617089
0.102501222
0.102384105
0.102265733
0.102146106
0.102025218
0.101903068
0.101779653
0.10165497
0.101529016
0.101401788
0.101273283
0.1011435
0.101012433
0.100880082
0.100746443
0.100611513
0.100475289
0.100337769
0.100198949
0.100058828
0.0999174016
0.0997746676
0.099630623
0.0994852652
0.0993385912
0.0991905983
0.0990412837
0.0988906445
0.0987386781
0.0985853816
0.0984307522
0.0982747872
0.0981174837
0.0979588391
0.0977988505
0.0976375151
0.0974748303
0.0973107932
0.0971454011
0.0969786512
0.0968105409
0.0966410673
0.0964702277
0.0962980193
0.0961244395
0.0959494856
0.0957731547
0.0955954441
0.0954163513
0.0952358734
0.0950540077
0.0948707515
0.0946861022
0.094500057
0.0943126132
0.0941237683
0.0939335193
0.0937418638
0.0935487991
0.0933543223
0.093158431
0.0929611224
0.0927623939
0.0925622428
0.0923606665
0.0921576624
0.0919532278
0.09174736
0.0915400565
0.0913313146
0.0911211318
0.0909095054
0.0906964327
0.0904819113
0.0902659385
0.0900485116
0.0898296283
0.0896092857
0.0893874815
0.0891642129
0.0889394775
0.0887132727
0.0884855959
0.0882564446
0.0880258162
0.0877937082
0.0875601182
0.0873250434
0.0870884815
0.08685043
0.0866108862
0.0863698477
0.0861273121
0.0858832768
0.0856377393
0.0853906972
0.085142148
0.0848920892
0.0846405184
0.0843874331
0.0841328308
0.0838767092
0.0836190658
0.0833598981
0.0830992038
0.0828369804
0.0825732255
0.0823079367
0.0820411117
0.081772748
0.0815028432
0.081231395
0.080958401
0.0806838588
0.0804077662
0.0801301206
0.0798509199
0.0795701616
0.0792878435
0.0790039631
0.0787185183
0.0784315066
0.0781429259
0.0778527737
0.0775610478
0.077267746
0.076972866
0.0766764054
0.0763783621
0.0760787338
0.0757775183
0.0754747132
0.0751703165
0.0748643258
0.074556739
0.0742475539
0.0739367683
0.0736243799
0.0733103866
0.0729947863
0.0726775767
0.0723587558
0.0720383213
0.0717162711
0.0713926031
0.0710673152
0.0707404052
0.0704118711
0.0700817107
0.069749922
0.0694165028
0.0690814511
0.0687447649
0.068406442
0.0680664805
0.0677248782
0.0673816332
0.0670367434
0.0666902068
0.0663420215
0.0659921853
0.0656406964
0.0652875526
0.0649327522
0.064576293
0.0642181732
0.0638583909
0.0634969439
0.0631338306
0.0627690488
0.0624025968
0.0620344725
0.0616646743
0.0612932
0.0609200479
0.0605452162
0.0601687029
0.0597905062
0.0594106243
0.0590290554
0.0586457976
0.0582608491
0.0578742082
0.057485873
0.0570958419
0.0567041129
0.0563106844
0.0559155545
0.0555187217
0.0551201841
0.05471994
0.0543179877
0.0539143256
0.0535089519
0.0531018649
0.052693063
0.0522825445
0.0518703079
0.0514563513
0.0510406733
0.0506232722
0.0502041463
0.0497832942
0.0493607142
0.0489364047
0.0485103641
0.048082591
0.0476530838
0.0472218409
0.0467888608
0.046354142
0.045917683
0.0454794824
0.0450395385
0.0445978501
0.0441544155
0.0437092334
0.0432623024
0.0428136209
0.0423631876
0.0419110011
0.04145706
0.041001363
0.0405439085
0.0400846954
0.0396237222
0.0391609875
0.0386964902
0.0382302288
0.0377622021
0.0372924088
0.0368208476
0.0363475172
0.0358724163
0.0353955438
0.0349168984
0.0344364789
0.033954284
0.0334703126
0.0329845635
0.0324970355
0.0320077274
0.0315166382
0.0310237666
0.0305291115
0.0300326718
0.0295344465
0.0290344344
0.0285326344
0.0280290456
0.0275236667
0.0270164969
0.026507535
0.02599678
0.025484231
0.0249698869
0.0244537468
0.0239358096
0.0234160745
0.0228945405
0.0223712067
0.0218460721
0.0213191359
0.0207903971
0.0202598548
0.0197275083
0.0191933566
0.018657399
0.0181196345
0.0175800623
0.0170386817
0.0164954919
0.0159504921
0.0154036815
0.0148550593
0.0143046249
0.0137523775
0.0131983164
0.0126424409
0.0120847503
0.0115252439
0.0109639211
0.0104007812
0.00983582357
0.00926904763
0.00870045277
0.00813003837
0.00755780385
0.00698374866
0.00640787224
0.00583017405
0.00525065355
0.00466931025
0.00408614363
0.00350115321
0.00291433853
0.00232569911
0.00173523453
0.00114294434
0.000548828123
4.71145162e-05
0.000644883971
0.00124448062
0.00184590482
0.00244915692
0.00305423725
0.00366114615
0.0042698839
0.00488045082
0.00549284716
0.0061070732
0.00672312919
0.00734101536
0.00796073194
0.00858227913
0.00920565713
0.00983086611
0.0104579062
0.0110867777
0.0117174805
0.012350015
0.0129843811
0.0136205789
0.0142586086
0.0148984702
0.0155401637
0.0161836893
0.0168290468
0.0174762363
0.0181252579
0.0187761114
0.0194287969
0.0200833143
0.0207396634
0.0213978444
0.0220578569
0.022719701
0.0233833766
0.0240488833
0.0247162212
0.02538539
0.0260563896
0.0267292197
0.0274038802
0.0280803707
0.0287586911
0.0294388411
0.0301208205
0.0308046288
0.0314902659
0.0321777314
0.032867025
0.0335581462
0.0342510948
0.0349458704
0.0356424726
0.0363409009
0.0370411549
0.0377432342
0.0384471384
0.0391528669
0.0398604192
0.0405697949
0.0412809935
0.0419940143
0.042708857
0.0434255208
0.0441440052
0.0448643096
0.0455864334
0.0463103759
0.0470361366
0.0477637147
0.0484931097
0.0492243207
0.0499573471
0.0506921882
0.0514288431
0.0521673113
0.0529075919
0.0536496841
0.0543935871
0.0551393001
0.0558868222
0.0566361527
0.0573872907
0.0581402352
0.0588949853
0.0596515403
0.0604098991
0.0611700607
0.0619320243
0.0626957889
0.0634613534
0.0642287169
0.0649978783
0.0657688365
0.0665415907
0.0673161395
0.0680924821
0.0688706172
0.0696505438
0.0704322606
0.0712157667
0.0720010607
0.0727881415
0.0735770079
0.0743676587
0.0751600926
0.0759543084
0.0767503049
0.0775480807
0.0783476346
0.0791489651
0.0799520711
0.0807569511
0.0815636039
0.0823720279
0.0831822218
0.0839941842
0.0848079137
0.0856234088
0.0864406681
0.08725969
0.0880804731
0.0889030159
0.0897273168
0.0905533743
0.0913811868
0.0922107527
0.0930420706
0.0938751386
0.0947099553
0.0955465189
0.0963848279
0.0972248805
0.098066675
0.0989102098
0.099755483
0.100602493
0.101451238
0.102301716
0.103153926
0.104007865
0.104863532
0.105720925
0.106580042
0.107440881
0.108303441
0.109167719
0.110033713
0.110901422
0.111770843
0.112641976
0.113514816
0.114389363
0.115265615
0.116143569
0.117023224
0.117904577
0.118787627
0.11967237
0.120558806
0.121446931
0.122336744
0.123228243
0.124121425
0.125016288
0.12591283
0.126811049
0.127710942
0.128612507
0.129515742
0.130420645
0.131327212
0.132235443
0.133145334
0.134056883
0.134970088
0.135884946
0.136801455
0.137719612
0.138639415
0.139560862
0.140483949
0.141408675
0.142335037
0.143263033
0.144192659
0.145123913
0.146056793
0.146991295
0.147927418
0.148865159
0.149804515
0.150745483
0.151688061
0.152632246
0.153578035
0.154525425
0.155474414
0.156424999
0.157377177
0.158330945
0.159286301
0.160243241
0.161201763
0.162161864
0.163123541
0.16408679
0.16505161
0.166017997
0.166985948
0.16795546
0.16892653
0.169899155
0.170873333
0.171849059
0.172826332
0.173805147
0.174785502
0.175767394
0.176750819
0.177735774
0.178722257
0.179710264
0.180699791
0.181690836
0.182683396
0.183677466
0.184673044
0.185670127
0.186668711
0.187668793
0.188670369
0.189673436
0.190677992
0.191684031
0.192691552
0.193700551
0.194711023
0.195722966
0.196736377
0.197751251
0.198767585
0.199785376
0.20080462
0.201825314
0.202847454
0.203871037
0.204896058
0.205922514
0.206950402
0.207979718
0.209010459
0.210042619
0.211076197
0.212111188
0.213147588
0.214185394
0.215224602
0.216265208
0.217307209
0.2183506
0.219395377
0.220441537
0.221489077
0.222537991
0.223588277
0.224639929
0.225692946
0.226747321
0.227803052
0.228860134
0.229918564
0.230978337
0.23203945
0.233101898
0.234165677
0.235230783
0.236297213
0.237364961
0.238434024
0.239504399
0.240576079
0.241649062
0.242723344
0.243798919
0.244875784
0.245953935
0.247033367
0.248114076
0.249196058
0.250279308
0.251363822
0.252449597
0.253536626
0.254624907
0.255714434
0.256805204
0.257897212
0.258990453
0.260084923
0.261180618
0.262277532
0.263375663
0.264475005
0.265575553
0.266677303
0.267780251
0.268884391
0.26998972
0.271096233
0.272203925
0.273312792
0.274422828
0.27553403
0.276646392
0.27775991
0.278874579
0.279990394
0.281107352
0.282225446
0.283344672
0.284465026
0.285586503
0.286709097
0.287832804
0.288957619
0.290083538
0.291210555
0.292338666
0.293467865
0.294598148
0.295729509
0.296861945
0.297995449
0.299130018
0.300265645
0.301402326
0.302540056
0.30367883
0.304818643
0.305959489
0.307101365
0.308244263
0.309388181
0.310533111
0.31167905
0.312825992
0.313973932
0.315122864
0.316272785
0.317423687
0.318575567
0.319728418
0.320882236
0.322037016
0.323192751
0.324349438
0.32550707
0.326665642
0.327825149
0.328985585
0.330146946
0.331309225
0.332472418
0.333636519
0.334801522
0.335967423
0.337134215
0.338301893
0.339470452
0.340639887
0.341810191
0.34298136
0.344153387
0.345326267
0.346499996
0.347674566
0.348849973
0.35002621
0.351203273
0.352381156
0.353559853
0.354739358
0.355919666
0.357100771
0.358282667
0.35946535
0.360648812
0.361833048
0.363018053
0.364203821
0.365390346
0.366577622
0.367765644
0.368954405
0.3701439
0.371334123
0.372525069
0.373716731
0.374909103
0.37610218
0.377295955
0.378490424
0.379685579
0.380881415
0.382077927
0.383275107
0.384472951
0.385671452
0.386870604
0.388070401
0.389270837
0.390471907
0.391673604
0.392875922
0.394078854
0.395282396
0.396486541
0.397691282
0.398896614
0.400102531
0.401309026
0.402516094
0.403723727
0.404931921
0.406140668
0.407349964
0.4085598
0.409770172
0.410981073
0.412192496
0.413404436
0.414616887
0.415829841
0.417043293
0.418257237
0.419471666
0.420686574
0.421901954
0.423117801
0.424334107
0.425550867
0.426768075
0.427985723
0.429203805
0.430422316
0.431641248
0.432860595
0.434080352
0.43530051
0.436521065
0.437742009
0.438963336
0.44018504
0.441407113
0.442629551
0.443852345
0.44507549
0.446298979
0.447522806
0.448746963
0.449971445
0.451196245
0.452421356
0.453646772
0.454872486
0.456098491
0.457324782
0.45855135
0.459778191
0.461005296
0.46223266
0.463460275
0.464688136
0.465916235
0.467144565
0.468373121
0.469601895
0.470830881
0.472060071
0.47328946
0.47451904
0.475748805
0.476978748
0.478208862
0.479439141
0.480669577
0.481900164
0.483130895
0.484361763
0.485592762
0.486823884
0.488055124
0.489286473
0.490517925
0.491749474
0.492981112
0.494212833
0.495444629
0.496676494
0.497908421
0.499140404
0.500372434
0.501604506
0.502836611
0.504068745
0.505300898
0.506533066
0.507765239
0.508997413
0.510229579
0.511461731
0.512693861
0.513925963
0.51515803
0.516390055
0.51762203
0.518853949
0.520085805
0.521317591
0.522549299
0.523780923
0.525012456
0.52624389
0.527475218
0.528706434
0.529937531
0.5311685
0.532399336
0.533630031
0.534860578
0.536090971
0.5373212
0.538551261
0.539781146
0.541010846
0.542240357
0.543469669
0.544698777
0.545927673
0.547156349
0.548384799
0.549613016
0.550840992
0.552068721
0.553296194
0.554523406
0.555750348
0.556977013
0.558203395
0.559429486
0.560655279
0.561880767
0.563105942
0.564330798
0.565555326
0.566779521
0.568003374
0.569226879
0.570450028
0.571672813
0.572895229
0.574117267
0.57533892
0.576560181
0.577781043
0.579001498
0.580221539
0.58144116
0.582660352
0.583879108
0.585097422
0.586315285
0.587532691
0.588749632
0.589966101
0.59118209
0.592397593
0.593612603
0.59482711
0.59604111
0.597254593
0.598467553
0.599679983
0.600891875
0.602103222
0.603314017
0.604524251
0.605733919
0.606943012
0.608151524
0.609359446
0.610566772
0.611773494
0.612979606
0.614185098
0.615389965
0.616594199
0.617797793
0.619000738
0.620203029
0.621404657
0.622605615
0.623805896
0.625005493
0.626204397
0.627402603
0.628600102
0.629796886
0.63099295
0.632188285
0.633382883
0.634576739
0.635769843
0.63696219
0.638153771
0.639344579
0.640534607
0.641723847
0.642912293
0.644099936
0.645286769
0.646472786
0.647657978
0.648842338
0.650025859
0.651208534
0.652390355
0.653571314
0.654751405
0.65593062
0.657108952
0.658286393
0.659462936
0.660638574
0.661813299
0.662987104
0.664159981
0.665331924
0.666502924
0.667672975
0.668842069
0.670010199
0.671177357
0.672343537
0.67350873
0.674672929
0.675836128
0.676998318
0.678159492
0.679319644
0.680478765
0.681636849
0.682793887
0.683949874
0.6851048
0.68625866
0.687411445
0.688563149
0.689713764
0.690863282
0.692011697
0.693159001
0.694305187
0.695450248
0.696594175
0.697736963
0.698878603
0.700019088
0.701158412
0.702296566
0.703433543
0.704569337
0.70570394
0.706837344
0.707969542
0.709100528
0.710230293
0.711358831
0.712486134
0.713612196
0.714737008
0.715860563
0.716982855
0.718103876
0.719223618
0.720342076
0.72145924
0.722575105
0.723689663
0.724802906
0.725914828
0.727025421
0.728134678
0.729242593
0.730349157
0.731454363
0.732558205
0.733660675
0.734761766
0.735861471
0.736959782
0.738056694
0.739152197
0.740246286
0.741338953
0.742430191
0.743519992
0.744608351
0.745695259
0.74678071
0.747864696
0.74894721
0.750028246
0.751107796
0.752185853
0.75326241
0.75433746
0.755410995
0.75648301
0.757553496
0.758622447
0.759689856
0.760755716
0.761820019
0.762882759
0.763943928
0.76500352
0.766061528
0.767117944
0.768172763
0.769225976
0.770277576
0.771327558
0.772375913
0.773422635
0.774467717
0.775511153
0.776552934
0.777593055
0.778631508
0.779668286
0.780703384
0.781736792
0.782768506
0.783798517
0.78482682
0.785853407
0.786878271
0.787901406
0.788922804
0.78994246
0.790960366
0.791976515
0.7929909
0.794003516
0.795014354
0.796023409
0.797030673
0.79803614
0.799039803
0.800041656
0.801041691
0.802039902
0.803036282
0.804030824
0.805023523
0.806014371
0.807003361
0.807990487
0.808975742
0.80995912
0.810940614
0.811920218
0.812897924
0.813873726
0.814847619
0.815819594
0.816789645
0.817757767
0.818723952
0.819688194
0.820650486
0.821610823
0.822569196
0.823525601
0.82448003
0.825432477
0.826382936
0.827331399
0.828277862
0.829222316
0.830164757
0.831105176
0.832043569
0.832979929
0.833914249
0.834846523
0.835776745
0.836704908
0.837631006
0.838555032
0.839476981
0.840396847
0.841314622
0.8422303
0.843143877
0.844055344
0.844964696
0.845871927
0.84677703
0.84768
0.84858083
0.849479514
0.850376046
0.85127042
0.852162629
0.853052667
0.85394053
0.854826209
0.8557097
0.856590996
0.857470091
0.858346979
0.859221655
0.860094112
0.860964343
0.861832344
0.862698108
0.86356163
0.864422902
0.86528192
0.866138678
0.866993169
0.867845388
0.868695329
0.869542985
0.870388352
0.871231423
0.872072193
0.872910655
0.873746804
0.874580635
0.875412141
0.876241316
0.877068156
0.877892653
0.878714803
0.8795346
0.880352039
0.881167112
0.881979816
0.882790143
0.88359809
0.884403649
0.885206816
0.886007585
0.88680595
0.887601906
0.888395447
0.889186568
0.889975263
0.890761527
0.891545355
0.89232674
0.893105678
0.893882163
0.894656189
0.895427752
0.896196845
0.896963465
0.897727604
0.898489259
0.899248423
0.900005091
0.900759258
0.901510919
0.902260069
0.903006702
0.903750813
0.904492397
0.905231449
0.905967963
0.906701935
0.907433359
0.90816223
0.908888543
0.909612294
0.910333476
0.911052086
0.911768117
0.912481565
0.913192425
0.913900692
0.914606361
0.915309427
0.916009885
0.91670773
0.917402958
0.918095563
0.91878554
0.919472886
0.920157594
0.92083966
0.92151908
0.922195848
0.92286996
0.92354141
0.924210196
0.924876311
0.925539751
0.926200511
0.926858587
0.927513973
0.928166667
0.928816662
0.929463954
0.930108539
0.930750412
0.931389569
0.932026005
0.932659715
0.933290696
0.933918942
0.93454445
0.935167214
0.935787231
0.936404496
0.937019005
0.937630754
0.938239737
0.938845951
0.939449392
0.940050055
0.940647936
0.941243031
0.941835335
0.942424845
0.943011555
0.943595463
0.944176564
0.944754854
0.945330329
0.945902984
0.946472816
0.94703982
0.947603993
0.94816533
0.948723828
0.949279483
0.94983229
0.950382246
0.950929347
0.951473589
0.952014969
0.952553481
0.953089123
0.95362189
0.95415178
0.954678787
0.955202909
0.955724142
0.956242481
0.956757924
0.957270467
0.957780105
0.958286836
0.958790655
0.95929156
0.959789546
0.960284611
0.96077675
0.96126596
0.961752237
0.962235579
0.962715981
0.96319344
0.963667954
0.964139517
0.964608128
0.965073783
0.965536478
0.96599621
0.966452976
0.966906773
0.967357597
0.967805445
0.968250315
0.968692202
0.969131103
0.969567017
0.969999938
0.970429865
0.970856794
0.971280723
0.971701647
0.972119565
0.972534473
0.972946368
0.973355247
0.973761108
0.974163947
0.974563762
0.97496055
0.975354307
0.975745031
0.97613272
0.97651737
0.976898979
0.977277544
0.977653063
0.978025532
0.978394949
0.978761311
0.979124616
0.979484861
0.979842044
0.980196161
0.980547212
0.980895191
0.981240099
0.981581931
0.981920686
0.982256361
0.982588954
0.982918461
0.983244882
0.983568214
0.983888453
0.984205599
0.984519649
0.984830599
0.98513845
0.985443197
0.985744839
0.986043373
0.986338798
0.986631112
0.986920312
0.987206396
0.987489362
0.987769209
0.988045933
0.988319534
0.988590009
0.988857356
0.989121574
0.98938266
0.989640612
0.98989543
0.99014711
0.990395651
0.990641052
0.99088331
0.991122424
0.991358391
0.991591212
0.991820883
0.992047403
0.99227077
0.992490984
0.992708041
0.992921941
0.993132683
0.993340264
0.993544683
0.993745938
0.993944029
0.994138954
0.994330711
0.994519299
0.994704717
0.994886963
0.995066036
0.995241935
0.995414659
0.995584205
0.995750574
0.995913763
0.996073772
0.996230599
0.996384244
0.996534705
0.996681981
0.996826071
0.996966975
0.99710469
0.997239216
0.997370553
0.997498698
0.997623652
0.997745413
0.997863981
0.997979354
0.998091532
0.998200514
0.998306299
0.998408886
0.998508275
0.998604465
0.998697456
0.998787246
0.998873834
0.998957222
0.999037406
0.999114388
0.999188167
0.999258742
0.999326112
0.999390277
0.999451237
0.999508991
0.999563538
0.999614879
0.999663013
0.99970794
0.999749659
0.99978817
0.999823473
0.999855567
0.999884452
0.999910129
0.999932596
0.999951854
0.999967902
0.999980741
0.999990371
0.99999679
1
1
0.99999679
0.999990371
0.999980741
0.999967902
0.999951854
0.999932596
0.999910129
0.999884452
0.999855567
0.999823473
0.99978817
0.999749659
0.99970794
0.999663013
0.999614879
0.999563538
0.999508991
0.999451237
0.999390277
0.999326112
0.999258742
0.999188167
0.999114388
0.999037406
0.998957222
0.998873834
0.998787246
0.998697456
0.998604465
0.998508275
0.998408886
0.998306299
0.998200514
0.998091532
0.997979354
0.997863981
0.997745413
0.997623652
0.997498698
0.997370553
0.997239216
0.99710469
0.996966975
0.996826071
0.996681981
0.996534705
0.996384244
0.996230599
0.996073772
0.995913763
0.995750574
0.995584205
0.995414659
0.995241935
0.995066036
0.994886963
0.994704717
0.994519299
0.994330711
0.994138954
0.993944029
0.993745938
0.993544683
0.993340264
0.993132683
0.992921941
0.992708041
0.992490984
0.99227077
0.992047403
0.991820883
0.991591212
0.991358391
0.991122424
0.99088331
0.990641052
0.990395651
0.99014711
0.98989543
0.989640612
0.98938266
0.989121574
0.988857356
0.988590009
0.988319534
0.988045933
0.987769209
0.987489362
0.987206396
0.986920312
0.986631112
0.986338798
0.986043373
0.985744839
0.985443197
0.98513845
0.984830599
0.984519649
0.984205599
0.983888453
0.983568214
0.983244882
0.982918461
0.982588954
0.982256361
0.981920686
0.981581931
0.981240099
0.980895191
0.980547212
0.980196161
0.979842044
0.979484861
0.979124616
0.978761311
0.978394949
0.978025532
0.977653063
0.977277544
0.976898979
0.97651737
0.97613272
0.975745031
0.975354307
0.97496055
0.974563762
0.974163947
